112 112 112 112 112 112 113 113 113 113 113 113 113 112 113 114 114 113 114 113 113 113 114 113 113 112 112 113 113 113 113 112 113 113 114 113 113 113 114 114 113 113 113 114 114 114 113 114 116 116 115 115 115 115 116 116 116 116 116 117 116 116 115 115 115 114 114 116 115 115 114 115 115 114 114 114 114 114 114 114 114 115 115 115 115 116 116 115 115 115 115 116 115 116 115 115 115 116 115 115 116 116 115 116 115 116 115 116 115 115 115 116 115 115 115 116 115 115 115 115 116 116 116 116 115 116 116 116 116 116 115 116 116 115 116 115 115 115 116 115 115 115 115 116 116 116 115 116 115 116 115 115 115 115 116 116 115 116 116 117 116 115 116 116 116 116 116 116 116 116 116 116 115 116 116 115 115 116 116 116 117 116 116 116 117 116 117 117 117 117 117 117 118 118 117 117 117 117 116 116 116 116 116 118 118 118 118 118 118 117 118 118 117 118 117 117 118 117 117 117 117 117 117 117 117 117 117 117 117 115 115 116 116 115 116 116 116 116 116 116 116 115 116 115 119 119 119 119 119 119 119 119 119 119 119 119 115 115 114 114 114 115 114 115 114 114 115 114 114 115 115 115 114 115 115 115 115 115 115 115 114 114 114 114 114 114 114 114 114 114 114 114 114 115 115 115 115 115 116 116 116 115 115 116 116 117 116 115 115 117 117 117 117 117 118 118 118 119 118 118 119 119 118 119 118 119 118 118 118 118 118 118 118 118 117 118 119 119 118 117 118 119 117 118 117 117 118 118 118 118 117 119 118 118 118 118 118 118 118 118 118 118 119 118 119 118 118 119 119 118 118 118 118 118 119 119 119 118 118 119 118 119 118 119 119 118 118 118 119 119 118 118 118 119 119 118 118 119 118 118 119 119 119 119 120 120 119 119 119 119 119 120 119 119 119 121 120 120 120 120 120 120 120 119 120 119 120 120 119 120 120 119 119 119 120 119 120 119 119 119 120 119 120 120 120 120 120 119 120 120 119 120 120 120 120 120 121 120 120 120 119 121 120 121 120 119 120 120 120 120 120 120 120 119 120 119 119 119 119 119 119 119 119 119 119 119 119 120 119 118 118 118 119 118 119 118 119 119 120 119 120 119 118 119 119 119 119 119 119 118 119 118 118 118 118 119 118 118 118 118 119 119 118 118 118 119 118 118 118 118 119 118 117 118 118 118 118 118 118 118 118 118 118 118 118 119 119 119 119 119 119 119 119 119 118 119 119 119 119 120 120 120 119 119 120 120 120 120 119 119 119 119 119 119 119 119 119 119 119 119 118 119 119 119 119 119 118 119 119 119 118 119 119 119 119 119 118 119 119 118 118 118 118 118 119 118 118 119 119 118 119 119 118 118 119 118 118 117 118 118 117 118 118 118 118 118 118 118 118 119 118 119 118 117 118 118 118 118 118 118 118 118 118 119 118 118 118 118 118 119 119 118 118 119 118 118 120 120 118 119 120 120 120 119 119 119 119 120 120 120 120 120 120 120 120 120 121 121 120 120 120 119 120 120 119 120 119 120 120 119 120 120 120 120 119 120 119 120 119 119 118 118 118 119 119 118 119 118 119 118 118 119 118 118 119 119 118 119 119 118 118 119 118 118 119 119 119 119 120 119 119 118 119 119 118 118 119 119 119 119 119 119 119 119 119 120 119 119 120 119 119 120 120 119 118 120 119 119 119 119 119 119 118 120 119 119 119 119 120 119 119 119 119 118 118 119 118 119 119 119 119 119 119 119 119 119 119 120 119 119 119 121 119 121 120 120 119 119 119 119 118 120 120 120 119 120 119 120 120 119 119 120 120 120 120 120 120 119 119 119 120 119 120 119 120 120 119 120 120 120 120 119 120 120 120 119 120 119 120 119 119 119 119 120 119 119 119 119 119 121 121 119 120 119 120 120 119 119 119 119 119 118 119 119 119 118 119 120 120 120 119 120 120 119 120 119 119 119 119 119 119 119 120 119 119 119 119 118 119 120 119 119 119 119 119 119 119 120 120 120 120 120 120 119 120 120 119 118 119 120 119 120 120 119 119 119 120 119 119 119 119 120 120 120 120 120 120 120 120 120 119 119 119 120 119 120 119 120 119 119 120 119 120 120 120 121 120 120 120 119 119 120 121 120 120 120 120 120 120 121 121 120 120 121 121 121 120 121 120 120 121 120 120 121 120 120 120 120 120 121 121 120 120 121 121 121 121 121 121 121 121 121 120 120 120 120 120 120 120 119 119 119 118 120 120 119 119 119 119 119 120 120 120 119 118 118 118 118 117 118 118 119 119 119 119 119 119 119 119 119 120 119 119 119 118 118 119 119 118 118 119 119 119 118 119 119 119 119 119 119 120 119 120 118 119 119 118 119 118 118 118 118 118 118 120 119 119 119 118 120 119 119 119 118 118 118 118 118 119 119 119 118 119 119 118 118 119 118 119 118 119 119 119 118 118 119 119 119 120 119 120 119 119 120 119 119 118 119 119 120 119 119 119 119 119 119 120 119 119 119 120 120 120 120 120 121 120 119 119 119 119 120 120 119 120 119 120 119 118 119 119 118 118 118 119 119 119 120 120 120 120 119 120 120 119 119 119 120 120 119 119 119 119 119 119 121 120 120 120 120 119 119 120 120 119 119 120 119 119 118 119 119 120 119 119 119 118 118 119 119 118 120 119 119 119 118 119 119 119 118 118 118 118 118 119 119 118 118 118 118 118 118 118 119 119 119 118 118 119 118 118 118 118 118 118 119 119 119 118 118 119 118 119 119 118 118 119 118 118 117 119 118 118 118 117 118 118 118 118 119 118 118 118 119 118 118 119 118 118 118 118 118 118 119 120 118 118 119 119 118 118 119 118 118 119 118 119 118 118 119 118 118 119 118 119 118 118 118 119 119 118 118 119 119 119 119 119 119 120 119 119 119 119 119 119 119 118 120 118 118 118 118 118 121 121 120 120 120 120 119 119 119 119 119 119 119 119 119 119 120 120 119 119 120 119 119 119 119 120 119 120 119 119 119 118 119 118 119 119 118 118 119 119 118 118 118 119 119 119 119 119 119 119 118 119 119 119 119 119 119 120 120 119 119 119 120 119 119 118 119 119 119 119 118 118 119 118 119 118 118 118 119 119 118 119 118 118 119 119 119 118 118 118 119 118 118 118 118 118 118 117 118 119 118 118 118 118 118 118 118 117 118 119 119 118 117 118 119 118 119 118 118 118 118 119 118 119 118 118 118 118 118 117 118 118 118 118 118 118 119 118 119 117 118 119 118 118 118 118 118 118 118 118 118 118 119 117 118 118 118 118 118 117 118 118 118 118 118 118 119 118 119 118 118 118 118 119 118 118 118 118 118 119 119 119 118 118 119 119 118 118 119 118 118 118 118 118 119 118 119 119 119 119 119 119 119 119 119 119 119 119 119 119 119 119 121 121 121 120 120 119 119 118 126 125 126 125 125 125 123 124 124 125 124 123 123 124 124 123 122 123 123 123 123 123 123 123 123 123 123 123 122 122 122 122 123 123 123 123 123 123 124 123 123 122 123 124 129 128 129 128 128 124 124 124 124 125 125 125 128 127 126 125 124 122 121 120 131 132 132 132 133 133 133 133 133 133 134 134 134 134 135 135 135 135 134 134 134 134 134 134 134 130
128 128 128 128 128 128 129 129 129 129 129 129 128 128 128 129 129 129 129 128 128 128 129 128 128 127 127 128 128 127 128 127 128 129 129 128 129 128 129 129 129 129 129 129 129 129 129 130 131 131 131 130 131 131 131 132 131 132 132 133 132 131 131 130 130 129 128 131 131 131 130 130 131 130 130 130 130 130 130 130 130 131 131 131 131 132 132 131 131 131 131 132 132 132 131 131 131 132 131 132 132 132 131 132 132 132 131 131 131 131 131 132 131 131 131 131 131 131 131 131 132 132 132 132 131 132 132 131 131 131 131 131 130 130 131 130 130 131 131 130 130 130 130 132 132 132 131 132 131 132 131 131 131 131 132 131 131 132 131 132 131 131 132 132 132 132 132 132 132 132 132 131 131 132 132 131 131 132 132 132 133 132 132 132 133 133 133 133 133 133 134 133 134 134 133 133 133 133 132 132 132 132 132 134 133 134 133 133 133 133 134 134 133 134 134 133 134 133 133 133 133 133 133 133 133 133 133 132 132 131 131 132 132 131 132 132 131 132 132 132 131 131 131 131 134 134 134 134 134 134 134 134 134 134 134 134 130 130 130 129 129 130 130 130 129 129 130 129 129 130 130 129 129 130 130 130 130 130 130 130 130 129 129 129 129 129 128 129 129 129 129 128 129 129 129 129 129 129 130 131 131 130 130 132 132 132 132 131 131 132 132 132 133 133 133 134 134 135 134 134 135 135 134 135 134 135 134 135 134 134 135 134 134 135 134 134 135 135 135 134 134 135 134 134 133 133 134 134 134 134 133 135 134 134 135 135 134 134 134 134 134 135 135 134 135 134 134 135 135 134 134 134 134 134 135 135 135 134 135 135 134 135 135 135 135 135 134 135 135 135 134 135 135 136 136 134 135 135 135 135 135 136 136 136 136 136 135 135 136 136 136 136 136 136 136 138 137 136 136 136 137 136 136 136 136 136 136 136 136 136 137 136 136 136 137 136 137 136 136 136 137 136 136 136 136 136 137 136 136 136 136 137 137 137 137 137 137 137 137 137 137 138 137 137 137 136 137 137 137 137 137 136 136 135 136 136 136 135 136 135 136 135 136 136 136 135 136 136 135 135 135 135 135 134 135 135 135 136 136 135 136 135 135 136 136 136 136 135 136 135 136 135 135 134 135 135 134 134 134 134 135 135 134 135 135 135 135 135 134 135 135 135 133 135 135 134 135 134 134 134 134 134 134 134 134 135 135 136 135 135 136 136 135 135 134 135 135 135 135 135 135 136 135 135 136 136 136 136 136 135 135 135 135 136 135 135 135 135 135 135 135 135 135 136 135 135 135 135 136 136 135 135 136 135 135 135 135 136 135 135 135 135 134 135 135 134 135 135 136 135 135 135 134 134 135 135 134 134 134 134 134 134 134 134 135 134 134 134 135 136 135 135 135 134 135 134 134 134 135 135 135 134 134 135 134 135 135 135 135 136 136 135 135 135 135 135 136 136 135 136 136 136 136 136 136 136 136 137 136 137 136 137 136 136 136 136 137 137 137 137 136 136 136 136 136 136 136 136 137 136 137 137 136 137 136 136 135 136 136 135 134 134 135 135 135 135 135 135 136 135 135 136 135 135 135 136 135 135 135 135 135 135 135 135 135 135 135 136 136 136 135 135 135 136 135 135 136 135 135 135 135 135 136 136 135 136 136 136 136 136 136 136 136 136 135 136 136 135 135 135 135 135 135 136 135 135 136 135 136 135 136 136 136 135 135 135 135 135 135 135 135 136 135 135 135 135 135 136 135 135 135 137 136 137 136 136 136 135 135 135 134 136 136 136 135 136 136 136 137 136 136 136 136 136 136 136 136 136 135 136 136 135 136 136 136 136 136 136 136 136 136 135 136 137 136 135 136 136 136 135 135 135 135 135 135 135 135 135 135 137 136 135 136 135 136 136 135 136 135 135 136 134 135 135 135 134 135 136 136 136 135 136 136 135 137 135 136 135 135 135 135 135 136 136 136 136 135 135 136 137 136 136 135 136 136 136 136 137 137 137 137 137 136 136 136 136 136 135 136 136 136 137 137 136 136 135 137 135 136 136 136 137 137 137 137 137 137 137 137 137 136 136 136 137 136 137 136 138 137 136 137 137 137 137 137 138 138 138 137 137 137 137 138 137 137 137 137 137 138 138 139 137 138 138 138 138 138 138 138 137 138 137 137 139 138 137 137 137 138 138 138 137 137 138 138 138 138 138 138 138 137 137 136 137 137 137 136 137 137 136 136 136 135 136 137 136 136 136 136 136 136 136 136 135 135 134 134 135 134 134 135 135 136 136 136 136 136 136 136 136 136 136 135 136 135 135 135 136 135 135 135 136 136 135 136 136 135 136 136 136 136 135 136 135 135 136 135 136 135 134 134 134 135 135 136 136 136 136 135 136 136 136 135 135 134 135 135 135 135 136 136 135 135 136 135 135 136 135 136 136 136 136 136 135 135 135 136 136 136 136 136 136 136 137 136 136 135 136 136 137 136 136 136 136 136 136 136 136 136 136 136 136 136 136 136 137 137 136 136 136 136 137 137 136 136 136 137 135 135 135 135 134 134 134 136 136 136 136 136 136 136 136 136 136 136 136 136 136 137 136 135 136 136 135 135 137 136 137 137 137 136 136 136 137 135 136 136 135 135 135 135 136 136 136 135 135 134 135 135 135 135 136 135 136 136 135 135 135 135 134 134 134 134 134 136 135 134 134 134 135 135 135 135 135 136 135 135 134 135 134 134 134 135 135 134 135 135 135 135 134 135 135 135 135 134 135 135 134 134 134 135 135 134 134 134 135 134 134 135 135 135 135 135 136 135 135 135 135 134 134 134 134 134 135 136 134 135 136 135 135 134 135 135 135 135 135 135 135 135 135 134 135 135 135 135 134 135 134 135 135 135 135 135 136 136 135 135 136 136 136 136 135 135 136 136 135 135 136 135 135 135 135 135 137 137 136 136 137 136 136 136 136 136 136 136 136 135 135 135 136 136 135 135 136 136 136 135 136 136 136 137 136 136 135 135 135 135 135 135 135 135 135 135 135 135 135 136 136 136 136 136 136 136 135 135 135 135 135 135 135 136 136 136 136 136 136 136 136 135 135 135 135 135 135 135 135 134 135 135 134 135 135 135 135 135 134 134 135 135 135 134 133 134 135 134 134 134 134 134 134 133 134 135 134 134 134 134 134 134 134 133 134 135 135 134 133 134 134 134 135 134 134 134 134 135 134 135 134 134 134 134 134 133 134 134 134 134 135 134 135 134 135 134 134 135 134 134 134 135 134 134 134 135 135 135 135 134 134 135 135 135 134 134 135 134 134 134 134 135 135 134 135 135 134 134 134 135 134 135 134 134 135 135 135 136 135 135 135 135 135 135 135 135 135 135 135 135 135 135 136 135 136 136 136 136 135 135 135 135 135 135 135 135 135 135 136 136 136 136 136 135 135 134 142 142 142 141 142 141 140 141 141 142 141 140 140 141 141 140 140 140 141 140 141 141 141 140 140 141 140 140 140 139 140 140 140 140 140 140 140 140 141 140 140 140 140 141 146 145 146 145 145 141 141 141 141 142 142 142 146 145 144 142 141 139 138 137 151 151 152 151 152 152 152 152 153 153 153 154 154 154 155 155 155 154 154 154 154 154 153 153 153 150
167 168 168 167 167 167 168 168 169 169 169 168 168 168 168 168 169 168 169 168 167 168 169 168 168 167 167 168 168 167 168 167 169 169 169 168 169 169 170 170 169 169 169 170 170 169 169 170 172 172 171 171 171 171 172 172 172 172 172 173 172 171 171 171 170 169 169 171 171 171 170 170 171 170 170 170 170 170 170 170 170 170 170 171 170 171 172 170 171 171 170 172 171 171 171 171 171 172 171 171 171 171 171 172 171 171 171 171 171 171 171 171 171 171 171 171 171 170 170 171 171 171 171 171 171 171 171 171 171 171 171 171 170 170 171 170 170 171 171 170 170 170 170 171 172 171 171 172 171 171 170 171 171 171 172 171 171 172 171 172 171 171 172 172 172 172 171 171 172 172 171 171 171 172 171 171 171 172 172 172 173 172 171 172 173 172 172 173 173 172 173 172 173 173 172 172 173 172 171 171 172 172 172 173 173 173 173 173 173 173 174 173 172 174 173 172 173 173 173 173 172 172 173 173 173 172 172 172 172 171 171 172 171 171 171 171 171 172 172 172 171 171 171 171 174 174 174 174 174 174 174 174 174 174 174 174 171 170 170 170 170 171 170 171 171 170 171 171 170 171 171 171 170 171 171 171 171 171 171 171 171 170 171 171 171 171 170 170 171 170 170 170 171 171 171 171 171 171 172 172 172 172 172 173 173 174 174 173 173 175 174 175 175 175 175 176 176 177 176 176 177 177 176 177 177 177 176 177 176 176 177 176 176 177 176 176 177 177 177 176 176 177 176 176 175 175 176 176 176 176 176 177 176 177 177 177 176 176 176 176 176 177 177 176 177 177 176 177 177 176 176 176 176 176 176 177 177 176 176 177 176 177 176 177 177 176 176 176 176 176 176 176 176 177 177 176 176 177 176 176 177 177 177 177 177 177 177 176 177 177 177 177 177 177 177 178 177 177 177 177 178 177 177 177 178 177 177 177 177 177 177 177 177 177 178 177 177 176 177 176 178 177 177 177 177 177 178 177 177 177 177 177 178 178 177 177 178 178 178 177 177 178 178 178 177 177 177 177 177 177 178 177 177 176 177 177 176 176 176 176 176 176 176 176 176 176 176 177 176 176 176 175 176 175 176 176 176 176 177 176 177 176 176 177 176 176 177 176 176 176 176 176 176 176 176 176 175 175 175 176 176 176 175 176 176 177 176 176 176 176 176 176 175 176 176 176 176 176 176 176 176 176 176 176 176 177 177 177 177 177 177 177 177 177 176 177 177 177 177 177 177 177 177 177 178 178 178 178 177 176 177 177 177 177 177 177 177 177 177 177 176 177 177 177 177 177 176 177 177 177 176 177 177 177 177 177 176 177 177 177 176 177 176 176 177 176 176 176 177 176 176 176 175 176 177 176 176 175 176 176 175 176 176 176 176 176 176 176 176 177 176 176 176 175 176 175 176 176 176 176 176 176 176 177 176 176 176 176 176 177 177 176 176 176 176 176 177 177 176 177 177 177 177 177 177 177 177 177 177 178 177 177 177 177 177 177 178 178 178 178 177 177 177 177 177 177 177 177 178 177 178 178 177 177 177 177 177 177 177 176 175 175 176 177 177 176 176 176 177 176 176 177 176 176 176 177 176 176 176 176 176 176 176 176 176 177 176 177 177 176 176 176 176 177 176 176 177 176 176 176 176 177 177 177 176 177 177 177 177 177 177 177 177 177 176 177 177 176 177 176 177 176 176 177 177 176 177 177 177 176 177 177 177 176 176 176 176 177 177 177 176 177 176 177 177 177 177 178 177 177 177 178 177 178 177 177 177 177 176 177 176 178 177 178 177 177 177 177 178 177 177 177 177 177 178 177 178 177 177 177 178 177 178 177 177 178 177 178 178 177 178 177 177 178 177 177 177 177 178 177 177 177 177 177 177 177 177 177 177 178 178 177 177 177 177 177 177 177 177 177 177 176 177 177 177 176 176 178 177 177 177 177 177 177 178 176 177 176 176 177 177 177 178 177 177 177 177 177 177 178 177 177 176 177 177 177 177 178 178 178 178 178 177 177 178 178 177 177 177 178 177 178 178 177 177 176 177 176 177 176 177 178 178 177 178 178 178 178 177 178 177 177 177 178 177 178 177 178 177 177 177 177 177 177 178 178 178 178 177 177 177 178 178 178 177 178 177 177 178 178 178 177 178 178 178 178 178 178 178 178 178 177 178 179 178 177 177 177 178 178 178 177 177 178 178 178 178 178 178 178 178 177 177 177 177 177 177 177 177 176 177 176 176 177 177 176 176 177 177 176 177 177 177 176 175 175 175 175 174 175 175 176 177 176 177 176 176 176 176 177 177 176 176 177 176 176 176 177 176 176 177 177 177 176 177 177 176 177 177 177 177 177 177 176 177 177 176 177 176 176 176 176 176 176 177 177 177 177 176 177 177 177 176 176 176 176 176 176 177 177 177 176 176 177 176 176 177 176 177 176 177 177 177 176 176 176 177 177 177 177 177 177 177 178 177 177 176 177 177 178 177 177 176 177 177 177 177 177 177 177 177 177 177 177 177 178 178 177 177 176 177 177 177 177 177 177 177 176 176 176 176 175 175 175 177 177 177 177 177 177 177 177 177 177 177 177 177 177 177 176 177 177 177 177 176 178 177 178 178 177 177 177 177 177 176 177 177 176 177 176 176 177 178 177 177 177 176 176 177 176 176 178 177 177 177 176 177 176 177 176 176 176 176 176 177 177 176 176 176 176 176 176 176 177 177 177 176 176 177 176 176 176 176 176 176 177 177 177 176 176 177 176 177 177 176 176 177 176 176 176 177 176 176 176 176 176 176 176 177 177 176 176 177 177 177 177 177 177 176 176 176 176 176 177 178 176 176 178 177 177 176 177 176 176 177 176 176 176 177 177 176 176 177 176 177 176 176 176 177 177 176 176 177 177 177 177 177 177 178 177 177 177 177 177 177 177 176 177 176 176 176 176 176 178 178 177 177 178 178 177 177 177 177 177 177 177 177 177 177 177 177 177 176 177 177 177 176 177 177 177 178 177 177 177 176 177 176 176 177 176 176 176 176 176 176 176 177 176 176 177 177 177 177 176 176 176 176 176 177 177 177 177 177 177 177 177 177 177 176 176 177 177 177 176 176 177 176 177 176 176 176 177 176 176 177 176 176 177 177 176 176 176 176 177 177 177 176 176 176 176 176 176 177 176 176 176 176 177 176 176 176 176 177 177 176 175 176 177 176 177 176 176 177 176 177 177 177 176 176 176 176 176 176 176 176 177 176 177 176 177 176 177 176 177 177 177 176 176 177 176 176 176 177 177 177 177 176 176 176 177 176 176 176 177 176 176 176 176 176 177 176 177 177 176 176 176 176 176 176 176 176 176 177 177 177 176 176 177 177 176 176 177 176 177 176 176 176 176 176 177 177 177 177 177 177 177 177 177 177 177 176 177 177 177 177 177 177 177 177 177 176 176 175 182 182 183 182 182 182 181 182 182 183 182 181 182 182 182 181 181 181 181 181 181 182 181 181 181 182 181 181 181 180 181 181 181 181 181 181 181 181 182 181 181 181 181 182 186 185 185 185 185 181 181 182 182 182 183 182 185 185 184 183 181 180 179 178 188 188 189 187 189 188 188 189 189 188 189 189 190 190 191 191 191 190 190 190 190 190 189 189 189 187